Wavelength(nm)	T%
1100		0.189057753
1099.5		0.200562269
1099		0.211758837
1098.5		0.22361365
1098		0.236227825
1097.5		0.249872237
1097		0.264482051
1096.5		0.280871391
1096		0.297525078
1095.5		0.315187722
1095		0.334217161
1094.5		0.354719073
1094		0.376533389
1093.5		0.400023758
1093		0.424833328
1092.5		0.452128977
1092		0.480718404
1091.5		0.511518419
1091		0.54449296
1090.5		0.58029902
1090		0.619227886
1089.5		0.661462843
1089		0.706090987
1088.5		0.753967702
1088		0.804945111
1087.5		0.860643685
1087		0.921382666
1086.5		0.987916887
1086		1.059272051
1085.5		1.136765957
1085		1.215490222
1084.5		1.305584073
1084		1.403184772
1083.5		1.512412786
1083		1.628570795
1082.5		1.749988675
1082		1.88698566
1081.5		2.032811165
1081		2.191695929
1080.5		2.372009754
1080		2.566710949
1079.5		2.77444315
1079		3.001339674
1078.5		3.248435974
1078		3.514365196
1077.5		3.811690331
1077		4.14646101
1076.5		4.503291607
1076		4.892482281
1075.5		5.315331459
1075		5.779536247
1074.5		6.28601408
1074		6.869140148
1073.5		7.494387627
1073		8.165665627
1072.5		8.921187401
1072		9.721710205
1071.5		10.61138916
1071		11.60373402
1070.5		12.70431137
1070		13.89093876
1069.5		15.16182899
1069		16.5596447
1068.5		18.08527565
1068		19.73453522
1067.5		21.59721375
1067		23.58496666
1066.5		25.68617249
1066		27.93640137
1065.5		30.34723473
1065		32.88318253
1064.5		35.67232895
1064		38.64196396
1063.5		41.63500214
1063		44.71733093
1062.5		47.93092728
1062		51.20990372
1061.5		54.5494194
1061		58.07629776
1060.5		61.40754318
1060		64.63633728
1059.5		67.89697266
1059		70.93566132
1058.5		73.84538269
1058		76.70811462
1057.5		79.38143921
1057		81.72161102
1056.5		83.89401245
1056		85.87230682
1055.5		87.58618164
1055		89.13469696
1054.5		90.59571838
1054		91.72628784
1053.5		92.66812897
1053		93.56768036
1052.5		94.23921204
1052		94.75550842
1051.5		95.28637695
1051		95.68204498
1050.5		95.90407562
1050		96.15792847
1049.5		96.34736633
1049		96.42462921
1048.5		96.50341034
1048		96.6241684
1047.5		96.62316132
1047		96.59679413
1046.5		96.64008331
1046		96.63824463
1045.5		96.57687378
1045		96.58727264
1044.5		96.60999298
1044		96.53978729
1043.5		96.52610779
1043		96.54969025
1042.5		96.5217514
1042		96.48716736
1041.5		96.5198288
1041		96.53885651
1040.5		96.48760223
1040		96.51493073
1039.5		96.54730225
1039		96.53966522
1038.5		96.54235077
1038		96.60385132
1037.5		96.61858368
1037		96.61756134
1036.5		96.646698
1036		96.69411469
1035.5		96.68962097
1035		96.69766235
1034.5		96.7434082
1034		96.75276184
1033.5		96.74185181
1033		96.76364136
1032.5		96.78942871
1032		96.76621246
1031.5		96.75026703
1031		96.77272797
1030.5		96.76610565
1030		96.72808838
1029.5		96.71643829
1029		96.70649719
1028.5		96.67948151
1028		96.65013123
1027.5		96.6266861
1027		96.62024689
1026.5		96.57619476
1026		96.54248047
1025.5		96.52198792
1025		96.49609375
1024.5		96.4490509
1024		96.41719818
1023.5		96.39143372
1023		96.34815216
1022.5		96.2999649
1022		96.2653656
1021.5		96.23934937
1021		96.18310547
1020.5		96.14416504
1020		96.09477234
1019.5		96.06163025
1019		96.01424408
1018.5		95.96635437
1018		95.92139435
1017.5		95.87996674
1017		95.85248566
1016.5		95.81209564
1016		95.76403046
1015.5		95.73683929
1015		95.70835114
1014.5		95.69244385
1014		95.65328217
1013.5		95.63597107
1013		95.63711548
1012.5		95.61724854
1012		95.61166382
1011.5		95.59766388
1011		95.619133
1010.5		95.61197662
1010		95.60559082
1009.5		95.62417603
1009		95.63780975
1008.5		95.66256714
1008		95.66934967
1007.5		95.70322418
1007		95.74880981
1006.5		95.76690674
1006		95.82338715
1005.5		95.84723663
1005		95.90677643
1004.5		95.98586273
1004		96.0009613
1003.5		96.08637238
1003		96.14109039
1002.5		96.21430206
1002		96.25272369
1001.5		96.33437347
1001		96.3825531
1000.5		96.45280457
1000		96.50328064
999.5		96.55635071
999		96.59353638
998.5		96.63267517
998		96.66896057
997.5		96.68361664
997		96.71305084
996.5		96.72147369
996		96.71214294
995.5		96.70173645
995		96.67049408
994.5		96.6541214
994		96.61087799
993.5		96.5676651
993		96.49079132
992.5		96.43447876
992		96.3500061
991.5		96.27133942
991		96.16923523
990.5		96.07504272
990		95.94259644
989.5		95.83978271
989		95.69855499
988.5		95.57833099
988		95.43742371
987.5		95.30795288
987		95.15585327
986.5		95.01869202
986		94.87333679
985.5		94.74783325
985		94.62091064
984.5		94.50416565
984		94.38561249
983.5		94.27896881
983		94.1890564
982.5		94.12042999
982		94.05406189
981.5		94.01988983
981		93.96854401
980.5		93.95848846
980		93.94076538
979.5		93.95503235
979		93.98802185
978.5		94.02752686
978		94.07624817
977.5		94.13750458
977		94.21518707
976.5		94.31602478
976		94.40300751
975.5		94.50827026
975		94.60649109
974.5		94.72892761
974		94.85977173
973.5		94.99478149
973		95.10796356
972.5		95.21959686
972		95.33919525
971.5		95.46682739
971		95.59472656
970.5		95.67913818
970		95.7690506
969.5		95.83191681
969		95.91919708
968.5		95.99583435
968		96.05489349
967.5		96.0638504
967		96.07830048
966.5		96.09899139
966		96.12746429
965.5		96.13822937
965		96.11911774
964.5		96.09278107
964		96.07371521
963.5		96.07082367
963		96.08364105
962.5		96.08919525
962		96.06575012
961.5		96.05220032
961		96.05307007
960.5		96.08515167
960		96.12194061
959.5		96.14926147
959		96.15472412
958.5		96.17431641
958		96.20902252
957.5		96.25431061
957		96.32912445
956.5		96.35400391
956		96.37362671
955.5		96.38741302
955		96.38685608
954.5		96.43219757
954		96.46502686
953.5		96.49729156
953		96.51847076
952.5		96.53804016
952		96.56843567
951.5		96.58310699
951		96.61243439
950.5		96.63153076
950		96.57386017
949.5		96.45420837
949		96.22994995
948.5		95.82221222
948		95.20644379
947.5		94.27857208
947		92.8651123
946.5		90.92421722
946		88.26180267
945.5		84.64978027
945		80.20166016
944.5		74.95466614
944		68.97489929
943.5		62.36437988
943		55.54862595
942.5		48.49452209
942		41.67146301
941.5		35.3800354
941		29.73722839
940.5		24.88439178
940		20.63248825
939.5		17.03034401
939		13.94750023
938.5		11.45263195
938		9.432883263
937.5		7.737634182
937		6.405012131
936.5		5.286938667
936		4.37032032
935.5		3.616756678
935		3.011877298
934.5		2.523237705
934		2.114899397
933.5		1.785684586
933		1.504756808
932.5		1.26530385
932		1.073461652
931.5		0.912627757
931		0.783116162
930.5		0.669072032
930		0.577466488
929.5		0.494871527
929		0.426863402
928.5		0.370738715
928		0.320735306
927.5		0.281316847
927		0.245469093
926.5		0.214356273
926		0.188207686
925.5		0.165083677
925		0.146062598
924.5		0.129171327
924		0.114719138
923.5		0.101977713
923		0.091324784
922.5		0.081125885
922		0.073562793
921.5		0.065012127
921		0.05864824
920.5		0.053240422
920		0.04812517
919.5		0.04323557
919		0.039262891
918.5		0.036095008
918		0.03304711
917.5		0.029952059
917		0.028108081
916.5		0.025775474
916		0.02369605
915.5		0.021718513
915		0.02013254
914.5		0.018710136
914		0.017113002
913.5		0.016343899
913		0.015077461
912.5		0.014191462
912		0.013744713
911.5		0.012894023
911		0.011700242
910.5		0.011117746
910		0.009908685
909.5		0.010005962
909		0.009298019
908.5		0.008906481
908		0.00852466
907.5		0.008131871
907		0.008010413
906.5		0.007454922
906		0.007067263
905.5		0.007180267
905		0.0064808
904.5		0.006545695
904		0.005640243
903.5		0.005995516
903		0.005582839
902.5		0.005446969
902		0.005791098
901.5		0.005088536
901		0.005448141
900.5		0.005196523
900		0.005319777
899.5		0.004848601
899		0.004309135
898.5		0.004511698
898		0.0045618
897.5		0.004292139
897		0.004500102
896.5		0.003710553
896		0.003462909
895.5		0.00352795
895		0.004053257
894.5		0.003701228
894		0.004356003
893.5		0.003721657
893		0.003525355
892.5		0.00403673
892		0.003709733
891.5		0.00355894
891		0.003627714
890.5		0.003863128
890		0.003506124
889.5		0.003371371
889		0.003684746
888.5		0.003965973
888		0.003711846
887.5		0.003393097
887		0.00353003
886.5		0.003838682
886		0.003774911
885.5		0.003545963
885		0.003813343
884.5		0.003340974
884		0.003363977
883.5		0.00339179
883		0.003320008
882.5		0.003700623
882		0.003158215
881.5		0.003373157
881		0.003454138
880.5		0.004123951
880		0.003557581
879.5		-0.001611389
879		0.000101051
878.5		-6.35E-05
878		5.16E-05
877.5		8.29E-05
877		0.000130359
876.5		0.00011445
876		0.000210479
875.5		9.87E-05
875		1.92E-05
874.5		0.000283092
874		-1.05E-05
873.5		0.000190568
873		0.000121271
872.5		0.000223336
872		8.15E-05
871.5		0.000173764
871		6.68E-05
870.5		1.79E-05
870		0.000286336
869.5		4.72E-05
869		0.000136698
868.5		-3.94E-05
868		0.000222425
867.5		-1.02E-05
867		7.17E-05
866.5		0.00013935
866		-8.96E-05
865.5		0.000270833
865		0.000124823
864.5		-7.10E-05
864		0.000260096
863.5		-0.000100083
863		7.24E-05
862.5		-1.69E-06
862		7.77E-05
861.5		0.00010544
861		9.77E-05
860.5		0.000178805
860		3.58E-05
859.5		9.48E-05
859		-9.59E-06
858.5		-3.69E-05
858		0.000132331
857.5		8.84E-05
857		6.83E-05
856.5		-2.64E-05
856		-1.40E-05
855.5		0.000220399
855		5.23E-07
854.5		3.77E-06
854		0.000140831
853.5		1.51E-05
853		0.000123808
852.5		-0.0002097
852		7.37E-05
851.5		2.67E-05
851		0.000131792
850.5		0.000147483
850		0.000154103
849.5		0.00014594
849		8.26E-06
848.5		0.000283846
848		-0.000108109
847.5		2.88E-05
847		-7.77E-06
846.5		-0.000131672
846		8.71E-06
845.5		0.000168801
845		2.59E-05
844.5		0.000285308
844		-5.39E-05
843.5		1.72E-05
843		0.000254325
842.5		-2.94E-05
842		6.15E-05
841.5		0.000150278
841		3.73E-06
840.5		0.000171852
840		0.000101307
839.5		9.90E-05
839		-5.20E-05
838.5		5.21E-05
838		5.63E-05
837.5		6.86E-05
837		2.49E-06
836.5		-0.000162268
836		0.000118629
835.5		1.73E-05
835		-3.46E-05
834.5		-6.71E-05
834		0.000170112
833.5		-6.76E-05
833		2.55E-05
832.5		6.77E-05
832		0.00011646
831.5		9.99E-05
831		-2.14E-05
830.5		3.08E-05
830		7.72E-05
829.5		-4.90E-06
829		6.00E-05
828.5		-0.00012717
828		-5.29E-05
827.5		0.00019142
827		-0.000200398
826.5		5.27E-05
826		0.000164655
825.5		0.000135555
825		3.43E-05
824.5		-1.00E-05
824		3.34E-05
823.5		0.00037032
823		-8.14E-05
822.5		-0.000278557
822		3.24E-05
821.5		-9.70E-06
821		-4.62E-05
820.5		7.99E-05
820		3.26E-05
819.5		0.000164543
819		4.38E-05
818.5		2.23E-05
818		0.000144345
817.5		6.68E-05
817		2.37E-08
816.5		6.62E-07
816		-1.85E-05
815.5		1.16E-05
815		-1.16E-06
814.5		-7.93E-06
814		4.84E-05
813.5		0.00011131
813		-1.21E-05
812.5		-5.35E-05
812		9.13E-05
811.5		6.61E-05
811		-1.35E-05
810.5		-3.52E-05
810		-4.32E-06
809.5		3.61E-05
809		-9.35E-06
808.5		-7.04E-05
808		2.37E-05
807.5		-9.16E-05
807		-1.07E-05
806.5		-1.63E-05
806		5.03E-05
805.5		1.25E-05
805		-2.94E-05
804.5		-1.14E-06
804		6.46E-05
803.5		9.93E-05
803		-8.90E-05
802.5		3.82E-05
802		0.000143098
801.5		0.000369929
801		4.47E-05
800.5		0.000117127
800		1.30E-05
799.5		0.000105239
799		-8.33E-06
798.5		-5.56E-05
798		-4.74E-05
797.5		1.91E-05
797		6.65E-05
796.5		-3.15E-06
796		4.53E-05
795.5		0.000134421
795		3.48E-05
794.5		-1.46E-05
794		-0.000134606
793.5		2.72E-05
793		9.43E-05
792.5		-4.27E-05
792		0.000105765
791.5		1.65E-05
791		3.91E-05
790.5		-0.000123585
790		4.71E-05
789.5		-5.48E-05
789		2.28E-06
788.5		5.96E-06
788		-2.00E-05
787.5		-2.18E-05
787		0.000238001
786.5		0.000125995
786		-5.37E-05
785.5		7.56E-05
785		9.78E-06
784.5		7.50E-05
784		4.81E-05
783.5		-8.20E-05
783		-9.66E-06
782.5		-1.00E-05
782		0.000104293
781.5		5.63E-05
781		8.34E-05
780.5		-4.03E-05
780		2.19E-06
779.5		1.32E-05
779		-4.63E-05
778.5		0.000149296
778		-3.60E-05
777.5		5.45E-05
777		2.26E-05
776.5		4.58E-06
776		-2.16E-05
775.5		-4.94E-05
775		2.49E-05
774.5		0.000155343
774		0.000117783
773.5		2.19E-05
773		-4.91E-05
772.5		1.32E-05
772		-1.13E-05
771.5		9.30E-05
771		0.000117717
770.5		3.19E-05
770		-1.37E-05
769.5		0.000157053
769		-7.14E-05
768.5		7.83E-05
768		-4.44E-06
767.5		-0.000102133
767		-8.95E-05
766.5		7.36E-05
766		3.70E-05
765.5		9.16E-05
765		-9.96E-06
764.5		-3.30E-06
764		1.69E-05
763.5		4.92E-05
763		7.46E-05
762.5		0.000209658
762		4.08E-05
761.5		1.40E-05
761		1.19E-05
760.5		-6.88E-06
760		3.82E-05
759.5		-8.94E-05
759		4.23E-05
758.5		-8.60E-05
758		7.68E-06
757.5		-4.33E-05
757		-1.57E-05
756.5		-7.15E-05
756		3.38E-05
755.5		0.000142206
755		-2.67E-06
754.5		5.59E-05
754		-5.84E-06
753.5		-4.40E-05
753		0.000104498
752.5		7.94E-05
752		0.000142782
751.5		-1.27E-05
751		4.37E-05
750.5		2.41E-05
750		4.34E-05
749.5		-1.75E-05
749		-7.06E-05
748.5		0.000116688
748		-3.65E-05
747.5		-6.30E-06
747		7.91E-05
746.5		1.91E-05
746		3.22E-05
745.5		-6.33E-05
745		5.55E-05
744.5		-6.35E-05
744		-2.72E-05
743.5		0.000105865
743		2.90E-05
742.5		1.09E-05
742		3.16E-05
741.5		4.54E-05
741		-1.05E-05
740.5		-4.17E-06
740		6.05E-05
739.5		9.97E-05
739		0.000190619
738.5		-5.29E-05
738		-5.62E-06
737.5		5.95E-05
737		-6.92E-05
736.5		2.03E-05
736		3.91E-06
735.5		7.14E-05
735		5.21E-05
734.5		5.48E-06
734		-8.77E-05
733.5		-6.48E-05
733		4.57E-05
732.5		3.39E-05
732		-5.16E-05
731.5		-4.09E-05
731		-4.74E-05
730.5		5.41E-05
730		0.000166842
729.5		-1.96E-05
729		6.52E-05
728.5		6.60E-05
728		2.19E-05
727.5		1.05E-05
727		6.88E-05
726.5		6.25E-05
726		3.20E-05
725.5		7.83E-06
725		1.71E-05
724.5		-3.34E-05
724		7.38E-05
723.5		-4.81E-06
723		6.70E-06
722.5		1.34E-05
722		8.42E-05
721.5		8.03E-05
721		5.65E-05
720.5		6.24E-05
720		5.02E-05
719.5		5.00E-05
719		7.84E-05
718.5		9.31E-06
718		-0.00011175
717.5		-1.50E-05
717		9.65E-07
716.5		0.000129656
716		2.23E-05
715.5		-5.55E-06
715		0.000112576
714.5		2.30E-05
714		2.43E-05
713.5		-1.66E-05
713		5.49E-05
712.5		1.12E-05
712		8.75E-05
711.5		3.89E-05
711		2.52E-05
710.5		-4.43E-05
710		5.34E-05
709.5		8.74E-06
709		0.000122514
708.5		-6.68E-05
708		-1.56E-06
707.5		-5.89E-05
707		6.71E-05
706.5		2.61E-05
706		-1.67E-05
705.5		-6.96E-05
705		5.75E-05
704.5		9.57E-05
704		4.10E-05
703.5		-2.51E-05
703		-7.11E-05
702.5		0.000411526
702		-7.59E-05
701.5		1.44E-05
701		-6.62E-05
700.5		0.000205713
700		-4.46E-05
699.5		-9.56E-05
699		-4.34E-05
698.5		4.75E-05
698		0.000218639
697.5		3.95E-05
697		9.88E-05
696.5		0.000303218
696		-6.49E-05
695.5		9.20E-06
695		0.000258466
694.5		0.000501662
694		0.000877894
693.5		0.001128592
693		0.000908092
692.5		0.000709866
692		0.000301907
691.5		-1.81E-05
691		-1.13E-05
690.5		3.99E-05
690		-3.82E-05
689.5		-7.65E-05
689		0.000171322
688.5		-9.14E-05
688		7.51E-05
687.5		0.000158143
687		-0.000214579
686.5		0.0003088
686		2.12E-05
685.5		-3.32E-06
685		0.000136391
684.5		3.46E-05
684		-8.04E-06
683.5		4.00E-05
683		0.000202585
682.5		0.000206413
682		0.000337282
681.5		0.000382668
681		0.000518448
680.5		0.00060281
680		0.000244433
679.5		0.000147277
679		5.95E-05
678.5		3.60E-05
678		0.000189265
677.5		2.01E-05
677		-2.87E-05
676.5		6.35E-06
676		-0.000102411
675.5		9.77E-05
675		3.91E-05
674.5		1.54E-05
674		2.75E-05
673.5		6.19E-05
673		-3.20E-05
672.5		-1.77E-05
672		-3.04E-05
671.5		4.39E-05
671		-1.89E-05
670.5		1.19E-05
670		-2.00E-05
669.5		1.47E-05
669		6.13E-06
668.5		-1.66E-06
668		2.32E-05
667.5		4.26E-05
667		-7.08E-05
666.5		-3.78E-05
666		-2.65E-05
665.5		8.41E-05
665		0.000114836
664.5		-0.000114284
664		-1.64E-05
663.5		-0.000103201
663		-6.50E-05
662.5		-2.40E-05
662		-7.34E-05
661.5		-2.85E-05
661		3.50E-05
660.5		-2.73E-05
660		-2.76E-05
659.5		-7.31E-05
659		-7.12E-05
658.5		2.12E-05
658		-5.21E-05
657.5		2.79E-06
657		3.31E-05
656.5		3.57E-05
656		5.43E-05
655.5		-2.42E-05
655		1.56E-05
654.5		7.16E-07
654		-7.64E-05
653.5		5.49E-05
653		-4.30E-05
652.5		-5.85E-05
652		-1.30E-05
651.5		-1.95E-05
651		1.57E-05
650.5		-2.34E-05
650		7.89E-06
649.5		-6.17E-05
649		-1.38E-05
648.5		-5.21E-06
648		4.14E-05
647.5		-3.54E-05
647		-5.41E-06
646.5		-2.06E-05
646		-7.72E-05
645.5		-6.77E-05
645		1.52E-06
644.5		3.87E-06
644		2.91E-05
643.5		-3.53E-05
643		-2.04E-05
642.5		3.14E-05
642		-4.27E-05
641.5		-5.02E-05
641		-2.38E-05
640.5		-5.79E-05
640		-5.74E-05
639.5		4.46E-05
639		1.91E-05
638.5		0.000113979
638		-6.50E-05
637.5		-6.14E-05
637		9.69E-05
636.5		-5.85E-05
636		-2.57E-05
635.5		0.000157062
635		-1.78E-05
634.5		-1.35E-05
634		2.55E-06
633.5		1.09E-05
633		7.98E-06
632.5		4.55E-05
632		4.99E-05
631.5		3.36E-05
631		8.12E-05
630.5		8.42E-05
630		9.41E-06
629.5		0.000113637
629		8.97E-05
628.5		5.95E-05
628		-0.000118493
627.5		-0.000107822
627		2.11E-05
626.5		6.19E-05
626		0.00012865
625.5		8.01E-05
625		1.01E-05
624.5		8.63E-05
624		-5.73E-05
623.5		1.71E-06
623		3.63E-05
622.5		7.66E-05
622		-2.08E-05
621.5		-9.61E-05
621		8.37E-05
620.5		-8.37E-05
620		-8.34E-06
619.5		-7.99E-06
619		4.29E-05
618.5		-9.24E-05
618		0.000110923
617.5		6.48E-05
617		9.47E-05
616.5		4.22E-05
616		-1.26E-05
615.5		-1.78E-05
615		1.89E-05
614.5		3.47E-05
614		-9.28E-07
613.5		-2.21E-05
613		-7.29E-06
612.5		4.44E-05
612		-0.00010759
611.5		7.28E-05
611		1.19E-05
610.5		-5.09E-05
610		-4.21E-05
609.5		5.71E-05
609		6.38E-05
608.5		-9.23E-05
608		2.36E-05
607.5		-6.15E-05
607		3.56E-05
606.5		0.000141501
606		-6.82E-05
605.5		-7.53E-05
605		3.70E-05
604.5		1.19E-05
604		5.48E-05
603.5		5.72E-05
603		-9.98E-07
602.5		-5.65E-05
602		9.40E-05
601.5		-3.68E-05
601		-8.14E-05
600.5		-0.000112444
600		8.13E-05
599.5		4.05E-06
599		-0.000100641
598.5		6.72E-06
598		2.40E-05
597.5		-2.27E-06
597		3.27E-05
596.5		2.59E-05
596		3.02E-05
595.5		1.01E-05
595		-9.16E-06
594.5		-1.12E-05
594		-1.24E-05
593.5		-3.67E-05
593		-2.98E-05
592.5		-3.19E-05
592		0.000106325
591.5		4.33E-05
591		-1.56E-05
590.5		7.69E-05
590		5.79E-05
589.5		-3.76E-06
589		6.90E-05
588.5		2.36E-05
588		8.58E-05
587.5		5.47E-05
587		-5.70E-05
586.5		-4.24E-05
586		3.11E-05
585.5		9.69E-05
585		-1.89E-05
584.5		2.53E-05
584		-5.61E-05
583.5		-6.71E-06
583		7.94E-05
582.5		-3.72E-05
582		8.49E-06
581.5		-6.84E-06
581		9.24E-05
580.5		1.45E-05
580		1.72E-05
579.5		-3.25E-05
579		0.000130179
578.5		2.20E-05
578		-1.05E-05
577.5		0.000103436
577		5.87E-05
576.5		0.000165749
576		-7.56E-05
575.5		-5.02E-05
575		6.96E-05
574.5		-0.000101783
574		6.44E-05
573.5		-2.82E-06
573		-2.15E-05
572.5		1.84E-05
572		0.000139366
571.5		7.44E-05
571		9.34E-05
570.5		0.000123117
570		8.25E-05
569.5		3.13E-05
569		6.99E-05
568.5		6.38E-05
568		0.000105122
567.5		7.57E-05
567		0.000130789
566.5		0.000110023
566		0.000116385
565.5		0.000124053
565		4.74E-05
564.5		5.68E-05
564		8.49E-05
563.5		-4.63E-07
563		9.79E-05
562.5		2.93E-05
562		-3.28E-07
561.5		9.80E-05
561		9.07E-06
560.5		1.47E-05
560		1.89E-05
559.5		4.12E-05
559		2.93E-05
558.5		-1.56E-05
558		4.01E-05
557.5		0.000139674
557		3.67E-05
556.5		0.000131625
556		-6.88E-05
555.5		7.97E-05
555		5.95E-05
554.5		0.000129279
554		7.50E-05
553.5		2.03E-05
553		3.18E-05
552.5		2.56E-05
552		7.48E-05
551.5		3.07E-06
551		0.000102907
550.5		6.11E-05
550		3.69E-05
549.5		6.90E-05
549		0.000116812
548.5		1.99E-05
548		-2.45E-05
547.5		-2.56E-05
547		6.09E-05
546.5		3.59E-05
546		3.28E-05
545.5		0.000131362
545		0.000115379
544.5		0.000105889
544		3.45E-06
543.5		8.38E-05
543		0.0001664
542.5		7.89E-05
542		-4.51E-05
541.5		2.64E-05
541		-1.07E-05
540.5		5.63E-05
540		2.47E-07
539.5		8.49E-05
539		6.31E-05
538.5		-1.95E-05
538		7.79E-06
537.5		-3.15E-05
537		1.55E-05
536.5		2.34E-05
536		8.19E-05
535.5		0.00012297
535		5.08E-05
534.5		0.000119502
534		-1.49E-05
533.5		9.73E-05
533		2.26E-05
532.5		0.000105405
532		6.00E-05
531.5		1.40E-05
531		2.40E-06
530.5		-2.12E-05
530		6.36E-06
529.5		-4.92E-06
529		3.88E-05
528.5		1.26E-05
528		2.54E-05
527.5		0.000131174
527		0.000146098
526.5		0.000122398
526		8.67E-06
525.5		3.86E-05
525		4.97E-05
524.5		-1.90E-05
524		9.75E-05
523.5		5.32E-05
523		8.42E-05
522.5		3.35E-05
522		3.96E-05
521.5		9.02E-05
521		1.08E-05
520.5		5.10E-06
520		5.89E-05
519.5		3.52E-05
519		5.92E-05
518.5		9.00E-05
518		-2.44E-06
517.5		0.000141847
517		0.000103866
516.5		9.27E-05
516		0.000148232
515.5		4.74E-05
515		-1.87E-06
514.5		0.000111485
514		6.64E-05
513.5		9.01E-05
513		5.03E-05
512.5		9.97E-05
512		0.000112057
511.5		1.08E-05
511		-0.000106744
510.5		0.000145553
510		8.72E-05
509.5		2.45E-05
509		4.77E-05
508.5		8.52E-05
508		8.02E-05
507.5		9.08E-05
507		2.30E-05
